Wavelength,Decadic_Abs_coef
313.0,26627.0159
313.5,26599.22925
314.0,26546.41089
314.5,26471.44809
315.0,26377.22881
315.5,26266.64097
316.0,26142.57255
316.5,26007.91146
317.0,25865.54568
317.5,25718.36313
318.0,25569.25177
318.5,25421.09954
319.0,25276.7944
319.5,25139.22427
320.0,25011.27712
320.5,24895.84089
321.0,24795.80325
321.5,24713.18843
322.0,24647.2348
322.5,24596.61994
323.0,24560.02146
323.5,24536.11697
324.0,24523.58407
324.5,24521.10034
325.0,24527.34341
325.5,24540.99085
326.0,24560.72029
326.5,24585.20931
327.0,24613.13552
327.5,24643.17651
328.0,24674.0099
328.5,24704.31327
329.0,24732.76424
329.5,24758.04039
330.0,24778.81934
330.5,24793.77868
331.0,24801.59601
331.5,24800.9992
332.0,24791.53566
332.5,24773.4201
333.0,24746.8866
333.5,24712.16926
334.0,24669.50217
334.5,24619.11943
335.0,24561.25513
335.5,24496.14337
336.0,24424.01823
336.5,24345.11383
337.0,24259.66424
337.5,24167.90356
338.0,24070.0659
338.5,23966.38533
339.0,23857.09597
339.5,23742.4319
340.0,23622.62721
340.5,23497.916
341.0,23368.53237
341.5,23234.71041
342.0,23096.68422
342.5,22954.68788
343.0,22808.9555
343.5,22659.72116
344.0,22507.21897
344.5,22351.68302
345.0,22193.34826
345.5,22032.49588
346.0,21869.47535
346.5,21704.64164
347.0,21538.34973
347.5,21370.9546
348.0,21202.81123
348.5,21034.2746
349.0,20865.69969
349.5,20697.44147
350.0,20529.85493
350.5,20363.29505
351.0,20198.11679
351.5,20034.67515
352.0,19873.3251
352.5,19714.42162
353.0,19558.31968
353.5,19405.37428
354.0,19255.94037
354.5,19110.37296
355.0,18969.027
355.5,18832.19266
356.0,18699.88661
356.5,18572.05343
357.0,18448.63771
357.5,18329.58404
358.0,18214.837
358.5,18104.34118
359.0,17998.04115
359.5,17895.88151
360.0,17797.80684
360.5,17703.76173
361.0,17613.69076
361.5,17527.53851
362.0,17445.24957
362.5,17366.76852
363.0,17292.03996
363.5,17221.00845
364.0,17153.6186
364.5,17089.81212
365.0,17029.51177
365.5,16972.63264
366.0,16919.08978
366.5,16868.79825
367.0,16821.67311
367.5,16777.62941
368.0,16736.58222
368.5,16698.44659
369.0,16663.13758
369.5,16630.57024
370.0,16600.65964
370.5,16573.32083
371.0,16548.46886
371.5,16526.0188
372.0,16505.8857
372.5,16487.98463
373.0,16472.23063
373.5,16458.53876
374.0,16446.82409
374.5,16437.00167
375.0,16428.98656
375.5,16422.69381
376.0,16418.03849
376.5,16414.93564
377.0,16413.30034
377.5,16413.04762
378.0,16414.07947
378.5,16416.04472
379.0,16418.36324
379.5,16420.44664
380.0,16421.70655
380.5,16421.55458
381.0,16419.40233
381.5,16414.66144
382.0,16406.7435
382.5,16395.06014
383.0,16379.02297
383.5,16358.04361
384.0,16331.53367
384.5,16298.90476
385.0,16259.56851
385.5,16212.93652
386.0,16158.42042
386.5,16095.43181
387.0,16023.39011
387.5,15942.17397
388.0,15852.369
388.5,15754.62102
389.0,15649.57587
389.5,15537.87938
390.0,15420.17739
390.5,15297.11574
391.0,15169.34025
391.5,15037.49677
392.0,14902.23112
392.5,14764.18915
393.0,14624.01668
393.5,14482.35955
394.0,14339.8636
394.5,14197.17467
395.0,14054.93857
395.5,13913.80116
396.0,13774.40826
396.5,13637.40571
397.0,13503.43934
397.5,13373.05186
398.0,13246.29101
398.5,13123.05629
399.0,13003.24718
399.5,12886.76313
400.0,12773.5036
400.5,12663.36807
401.0,12556.256
401.5,12452.06685
402.0,12350.70008
402.5,12252.05517
403.0,12156.03157
403.5,12062.52876
404.0,11971.44619
404.5,11882.68334
405.0,11796.13965
405.5,11711.71461
406.0,11629.30768
406.5,11548.81831
407.0,11470.14598
407.5,11393.19015
408.0,11317.85029
408.5,11244.02585
409.0,11171.61631
409.5,11100.52113
410.0,11030.63977
410.5,10961.8717
411.0,10894.11722
411.5,10827.28495
412.0,10761.28826
412.5,10696.04057
413.0,10631.4553
413.5,10567.44588
414.0,10503.92573
414.5,10440.80827
415.0,10378.00693
415.5,10315.43513
416.0,10253.00629
416.5,10190.63384
417.0,10128.2312
417.5,10065.71179
418.0,10002.98904
418.5,9939.97636
419.0,9876.58719
419.5,9812.73494
420.0,9748.33304
420.5,9683.29491
421.0,9617.53397
421.5,9550.96365
422.0,9483.49738
422.5,9415.07431
423.0,9345.7376
423.5,9275.55662
424.0,9204.60075
424.5,9132.93939
425.0,9060.6419
425.5,8987.77768
426.0,8914.41609
426.5,8840.62653
427.0,8766.47838
427.5,8692.04101
428.0,8617.38381
428.5,8542.57616
429.0,8467.68745
429.5,8392.78704
430.0,8317.94434
430.5,8243.22871
431.0,8168.70953
431.5,8094.4562
432.0,8020.53809
432.5,7947.02458
433.0,7873.98505
433.5,7801.4889
434.0,7729.60549
434.5,7658.40421
435.0,7587.95444
435.5,7518.32556
436.0,7449.58696
436.5,7381.80801
437.0,7315.0581
437.5,7249.40661
438.0,7184.92292
438.5,7121.67642
439.0,7059.73647
439.5,6999.17248
440.0,6940.05381
440.5,6882.44984
441.0,6826.42997
441.5,6772.06357
442.0,6719.42003
442.5,6668.56871
443.0,6619.57902
443.5,6572.52032
444.0,6527.44438
444.5,6484.2896
445.0,6442.9495
445.5,6403.31748
446.0,6365.28695
446.5,6328.75132
447.0,6293.60398
447.5,6259.73836
448.0,6227.04785
448.5,6195.42587
449.0,6164.76581
449.5,6134.96109
450.0,6105.9051
450.5,6077.49127
451.0,6049.61299
451.5,6022.16367
452.0,5995.03672
452.5,5968.12554
453.0,5941.32355
453.5,5914.52413
454.0,5887.62072
454.5,5860.5067
455.0,5833.07551
455.5,5805.25798
456.0,5777.09559
456.5,5748.65026
457.0,5719.98389
457.5,5691.15838
458.0,5662.23564
458.5,5633.27758
459.0,5604.34609
459.5,5575.50308
460.0,5546.81046
460.5,5518.33012
461.0,5490.12398
461.5,5462.25394
462.0,5434.7819
462.5,5407.76976
463.0,5381.27944
463.5,5355.37282
464.0,5330.11183
464.5,5305.55836
465.0,5281.77431
465.5,5258.8216
466.0,5236.76212
466.5,5215.65778
467.0,5195.57048
467.5,5176.56213
468.0,5158.69463
468.5,5142.02989
469.0,5126.62981
469.5,5112.55629
470.0,5099.86842
470.5,5088.5681
471.0,5078.60399
471.5,5069.92268
472.0,5062.47081
472.5,5056.19498
473.0,5051.04181
473.5,5046.95792
474.0,5043.88991
474.5,5041.78442
475.0,5040.58804
475.5,5040.24741
476.0,5040.70913
476.5,5041.91981
477.0,5043.82608
477.5,5046.37455
478.0,5049.51183
478.5,5053.18454
479.0,5057.3393
479.5,5061.92272
480.0,5066.88142
480.5,5072.16201
481.0,5077.71111
481.5,5083.47533
482.0,5089.40129
482.5,5095.4356
483.0,5101.52488
483.5,5107.61589
484.0,5113.68387
484.5,5119.76716
485.0,5125.91253
485.5,5132.16679
486.0,5138.57671
486.5,5145.18909
487.0,5152.05072
487.5,5159.20838
488.0,5166.70885
488.5,5174.59894
489.0,5182.92542
489.5,5191.73509
490.0,5201.07473
490.5,5210.99113
491.0,5221.53108
491.5,5232.74137
492.0,5244.66879
492.5,5257.36011
493.0,5270.86214
493.5,5285.22166
494.0,5300.48546
494.5,5316.70032
495.0,5333.91304
495.5,5352.1704
496.0,5371.51919
496.5,5392.00619
497.0,5413.67821
497.5,5436.58202
498.0,5460.76441
498.5,5486.27155
499.0,5513.13979
499.5,5541.39765
500.0,5571.07348
500.5,5602.19558
501.0,5634.79229
501.5,5668.89191
502.0,5704.52279
502.5,5741.71322
503.0,5780.49155
503.5,5820.8861
504.0,5862.92517
504.5,5906.6371
505.0,5952.05021
505.5,5999.19283
506.0,6048.09326
506.5,6098.77984
507.0,6151.28089
507.5,6205.62473
508.0,6261.83968
508.5,6319.95407
509.0,6379.99622
509.5,6441.99444
510.0,6505.97706
510.5,6571.97241
511.0,6640.00881
511.5,6710.11457
512.0,6782.31803
512.5,6856.64749
513.0,6933.1313
513.5,7011.79776
514.0,7092.6752
514.5,7175.79194
515.0,7261.17631
515.5,7348.85662
516.0,7438.8612
516.5,7531.21837
517.0,7625.95646
517.5,7723.10378
518.0,7822.68867
518.5,7924.73943
519.0,8029.28439
519.5,8136.35188
520.0,8245.97022
520.5,8358.16772
521.0,8472.97272
521.5,8590.41353
522.0,8710.51848
522.5,8833.31443
523.0,8958.81001
523.5,9087.00133
524.0,9217.8843
524.5,9351.4548
525.0,9487.70871
525.5,9626.64194
526.0,9768.25037
526.5,9912.52988
527.0,10059.47638
527.5,10209.08575
528.0,10361.35387
528.5,10516.27664
529.0,10673.84995
529.5,10834.06969
530.0,10996.93175
530.5,11162.43201
531.0,11330.56637
531.5,11501.33072
532.0,11674.72095
532.5,11850.73294
533.0,12029.36259
533.5,12210.60578
534.0,12394.45841
534.5,12580.91637
535.0,12769.97554
535.5,12961.63182
536.0,13155.88109
536.5,13352.71925
537.0,13552.14218
537.5,13754.14577
538.0,13958.72592
538.5,14165.87852
539.0,14375.59944
539.5,14587.88459
540.0,14802.72986
540.5,15020.13112
541.0,15240.08428
541.5,15462.58522
542.0,15687.62983
542.5,15915.21401
543.0,16145.33363
543.5,16377.9846
544.0,16613.1628
544.5,16850.86412
545.0,17091.08445
545.5,17333.81499
546.0,17579.01064
546.5,17826.6094
547.0,18076.54916
547.5,18328.76781
548.0,18583.20323
548.5,18839.79333
549.0,19098.47599
549.5,19359.18911
550.0,19621.87057
550.5,19886.45827
551.0,20152.8901
551.5,20421.10395
552.0,20691.03772
552.5,20962.62929
553.0,21235.81656
553.5,21510.53741
554.0,21786.72975
554.5,22064.33146
555.0,22343.28043
555.5,22623.51456
556.0,22904.97173
556.5,23187.58984
557.0,23471.30679
557.5,23756.06045
558.0,24041.78873
558.5,24328.42952
559.0,24615.9207
559.5,24904.20018
560.0,25193.20583
560.5,25482.87555
561.0,25773.14724
561.5,26063.96056
562.0,26355.28453
562.5,26647.11226
563.0,26939.43763
563.5,27232.25446
564.0,27525.55662
564.5,27819.33794
565.0,28113.59228
565.5,28408.31349
566.0,28703.49542
566.5,28999.13191
567.0,29295.21681
567.5,29591.74397
568.0,29888.70724
568.5,30186.10047
569.0,30483.9175
569.5,30782.15219
570.0,31080.79838
570.5,31379.84992
571.0,31679.30066
571.5,31979.14445
572.0,32279.37513
572.5,32579.98657
573.0,32880.97259
573.5,33182.32706
574.0,33484.04381
574.5,33786.11671
575.0,34088.5396
575.5,34391.30632
576.0,34694.41072
576.5,34997.84666
577.0,35301.60798
577.5,35605.68853
578.0,35910.08215
578.5,36214.78271
579.0,36519.78404
579.5,36825.07999
580.0,37130.66442
580.5,37436.53116
581.0,37742.67408
581.5,38049.08701
582.0,38355.76381
582.5,38662.69832
583.0,38969.8844
583.5,39277.3274
584.0,39585.11424
584.5,39893.3671
585.0,40202.20831
585.5,40511.76019
586.0,40822.14504
586.5,41133.48519
587.0,41445.90297
587.5,41759.52068
588.0,42074.46064
588.5,42390.84518
589.0,42708.79662
589.5,43028.43726
590.0,43349.88944
590.5,43673.27547
591.0,43998.71766
591.5,44326.33834
592.0,44656.25983
592.5,44988.60444
593.0,45323.4945
593.5,45661.05232
594.0,46001.40022
594.5,46344.66051
595.0,46690.95553
595.5,47040.40758
596.0,47393.13899
596.5,47749.27207
597.0,48108.92915
597.5,48472.23253
598.0,48839.30455
598.5,49210.26752
599.0,49585.24375
599.5,49964.35557
600.0,50347.7253
600.5,50735.47525
601.0,51127.72774
601.5,51524.60509
602.0,51926.22963
602.5,52332.72366
603.0,52744.20951
603.5,53160.8095
604.0,53582.64594
604.5,54009.84115
605.0,54442.51746
605.5,54880.79718
606.0,55324.80263
606.5,55774.65613
607.0,56230.47999
607.5,56692.39654
608.0,57160.52809
608.5,57634.99697
609.0,58115.82075
609.5,58602.61306
610.0,59094.89016
610.5,59592.16834
611.0,60093.96385
611.5,60599.79298
612.0,61109.17199
612.5,61621.61714
613.0,62136.64471
613.5,62653.77098
614.0,63172.5122
614.5,63692.38465
615.0,64212.9046
615.5,64733.58831
616.0,65253.95207
616.5,65773.51213
617.0,66291.78477
617.5,66808.28626
618.0,67322.53287
618.5,67834.04086
619.0,68342.32652
619.5,68846.90609
620.0,69347.29587
620.5,69843.01211
621.0,70333.57109
621.5,70818.48908
622.0,71297.28234
622.5,71769.46714
623.0,72234.55977
623.5,72692.07648
624.0,73141.53354
624.5,73582.44723
625.0,74014.33382
625.5,74436.70957
626.0,74849.09076
626.5,75250.99365
627.0,75641.93451
627.5,76021.42963
628.0,76388.99525
628.5,76744.14766
629.0,77086.40312
629.5,77415.28076
630.0,77730.56529
630.5,78032.51927
631.0,78321.45524
631.5,78597.68571
632.0,78861.5232
632.5,79113.28025
633.0,79353.26937
633.5,79581.80309
634.0,79799.19392
634.5,80005.7544
635.0,80201.79703
635.5,80387.64501
636.0,80563.70497
636.5,80730.42286
637.0,80888.24488
637.5,81037.61723
638.0,81178.98609
638.5,81312.79766
639.0,81439.49813
639.5,81559.53369
640.0,81673.35054
640.5,81781.39487
641.0,81884.11288
641.5,81981.95074
642.0,82075.35467
642.5,82164.77084
643.0,82250.64546
643.5,82333.42472
644.0,82413.5548
644.5,82491.4819
645.0,82567.65222
645.5,82642.51195
646.0,82716.50728
646.5,82790.08439
647.0,82863.63047
647.5,82937.22738
648.0,83010.85862
648.5,83084.50765
649.0,83158.1579
649.5,83231.79283
650.0,83305.39587
650.5,83378.95049
651.0,83452.44012
651.5,83525.84822
652.0,83599.15822
652.5,83672.35358
653.0,83745.41775
653.5,83818.33417
654.0,83891.08628
654.5,83963.65754
655.0,84036.03139
655.5,84108.19128
656.0,84180.12066
656.5,84251.80297
657.0,84323.22166
657.5,84394.36018
658.0,84465.20197
658.5,84535.73049
659.0,84605.92917
659.5,84675.92036
660.0,84746.8592
660.5,84820.36619
661.0,84898.06409
661.5,84981.57567
662.0,85072.52367
662.5,85172.53086
663.0,85283.21999
663.5,85406.21382
664.0,85543.13511
664.5,85695.60661
665.0,85865.25109
665.5,86053.69131
666.0,86262.55001
666.5,86493.44996
667.0,86748.01391
667.5,87027.60229
668.0,87331.47828
668.5,87657.89939
669.0,88005.11675
669.5,88371.38151
670.0,88754.94482
670.5,89154.05782
671.0,89566.97166
671.5,89991.93749
672.0,90427.20645
672.5,90871.0297
673.0,91321.65837
673.5,91777.34362
674.0,92236.33659
674.5,92697.06074
675.0,93158.85486
675.5,93621.36053
676.0,94084.21953
676.5,94547.07363
677.0,95009.56459
677.5,95471.33419
678.0,95932.02421
678.5,96391.2764
679.0,96848.73255
679.5,97304.03443
680.0,97756.8238
680.5,98206.74244
681.0,98653.43211
681.5,99096.5346
682.0,99535.69167
682.5,99970.54509
683.0,100400.73664
683.5,100825.90702
684.0,101245.64766
684.5,101659.48093
685.0,102066.92402
685.5,102467.49413
686.0,102860.70847
686.5,103246.08422
687.0,103623.13859
687.5,103991.38877
688.0,104350.35198
688.5,104699.54539
689.0,105038.48622
689.5,105366.69166
690.0,105683.6789
690.5,105988.96516
691.0,106282.06762
691.5,106562.50792
692.0,106830.63218
692.5,107088.57311
693.0,107338.69711
693.5,107583.3706
694.0,107824.95998
694.5,108065.83167
695.0,108308.35208
695.5,108554.88763
696.0,108807.80471
696.5,109069.46976
697.0,109342.24917
697.5,109627.84743
698.0,109921.47151
698.5,110214.64276
699.0,110498.84034
699.5,110765.54339
700.0,111006.23108
700.5,111212.38256
701.0,111376.45516
701.5,111497.81537
702.0,111578.80534
702.5,111621.77884
703.0,111629.08966
703.5,111603.09155
704.0,111546.13829
704.5,111460.58367
705.0,111348.78145
705.5,111213.0854
706.0,111055.8493
706.5,110879.42693
707.0,110686.17205
707.5,110478.43576
708.0,110257.82073
708.5,110024.16124
709.0,109777.03627
709.5,109516.02478
710.0,109240.70574
710.5,108950.65813
711.0,108645.4609
711.5,108324.69302
712.0,107987.93347
712.5,107634.76121
713.0,107264.75521
713.5,106877.58716
714.0,106473.40206
714.5,106052.49554
715.0,105615.1633
715.5,105161.70103
716.0,104692.40443
716.5,104207.5692
717.0,103707.49104
717.5,103192.46564
718.0,102662.78869
718.5,102118.7559
719.0,101560.66297
719.5,100988.80558
720.0,100403.47944
720.5,99804.98024
721.0,99193.60368
721.5,98569.64546
722.0,97933.40127
722.5,97285.16681
723.0,96625.23778
723.5,95953.90987
724.0,95271.47878
724.5,94578.24021
725.0,93874.48985
725.5,93160.5234
726.0,92436.63656
726.5,91703.12502
727.0,90960.28449
727.5,90208.41065
728.0,89447.7992
728.5,88678.74585
729.0,87901.54629
729.5,87116.49621
730.0,86323.89131
730.5,85524.02729
731.0,84717.20039
731.5,83903.73967
732.0,83084.02549
732.5,82258.44263
733.0,81427.37589
733.5,80591.21006
734.0,79750.32994
734.5,78905.1203
735.0,78055.96596
735.5,77203.2517
736.0,76347.36231
736.5,75488.68258
737.0,74627.59732
737.5,73764.4913
738.0,72899.74933
738.5,72033.7562
739.0,71166.89669
739.5,70299.55561
740.0,69432.11774
740.5,68564.96788
741.0,67698.49082
741.5,66833.07134
742.0,65969.09426
742.5,65106.94435
743.0,64247.00641
743.5,63389.66523
744.0,62535.30561
744.5,61684.31234
745.0,60837.07021
745.5,59993.95563
746.0,59155.24409
746.5,58321.14417
747.0,57491.86324
747.5,56667.60871
748.0,55848.58794
748.5,55035.00833
749.0,54227.07727
749.5,53425.00213
750.0,52628.99031
750.5,51839.24918
751.0,51055.98614
751.5,50279.40858
752.0,49509.72386
752.5,48747.13939
753.0,47991.86255
753.5,47244.10072
754.0,46504.06129
754.5,45771.95165
755.0,45047.97917
755.5,44332.35125
756.0,43625.27527
756.5,42926.95862
757.0,42237.60868
757.5,41557.43283
758.0,40886.63847
758.5,40225.43298
759.0,39574.02374
759.5,38932.61814
760.0,38301.42357
760.5,37680.64741
761.0,37070.49705
761.5,36471.17986
762.0,35882.90325
762.5,35305.87459
763.0,34740.30127
763.5,34186.39067
764.0,33644.35018
764.5,33114.38719
765.0,32596.70908
765.5,32091.48615
766.0,31598.5502
766.5,31117.5518
767.0,30648.1398
767.5,30189.96305
768.0,29742.67041
768.5,29305.91072
769.0,28879.33283
769.5,28462.58561
770.0,28055.3179
770.5,27657.17856
771.0,27267.81643
771.5,26886.88037
772.0,26514.01923
772.5,26148.88187
773.0,25791.11713
773.5,25440.37387
774.0,25096.30094
774.5,24758.5472
775.0,24426.76148
775.5,24100.59266
776.0,23779.68957
776.5,23463.70108
777.0,23152.27603
777.5,22845.06327
778.0,22541.71166
778.5,22241.87006
779.0,21945.1873
779.5,21651.31226
780.0,21359.90701
780.5,21070.8776
781.0,20784.34442
781.5,20500.43515
782.0,20219.27747
782.5,19940.99907
783.0,19665.72763
783.5,19393.59082
784.0,19124.71633
784.5,18859.23185
785.0,18597.26506
785.5,18338.94363
786.0,18084.39526
786.5,17833.74761
787.0,17587.12839
787.5,17344.66526
788.0,17106.48591
788.5,16872.71802
789.0,16643.48927
789.5,16418.92736
790.0,16199.15995
790.5,15984.31473
791.0,15774.51939
791.5,15569.9016
792.0,15370.58905
792.5,15176.69282
793.0,14988.17329
793.5,14804.91051
794.0,14626.7838
794.5,14453.67246
795.0,14285.45581
795.5,14122.01314
796.0,13963.22377
796.5,13808.96702
797.0,13659.12217
797.5,13513.56856
798.0,13372.18548
798.5,13234.85224
799.0,13101.44815
799.5,12971.85253
800.0,12845.94467
800.5,12723.6039
801.0,12604.70951
801.5,12489.14081
802.0,12376.77712
802.5,12267.49774
803.0,12161.18199
803.5,12057.70916
804.0,11956.95858
804.5,11858.80954
805.0,11763.14136
805.5,11669.83334
806.0,11578.7648
806.5,11489.81504
807.0,11402.86338
807.5,11317.78911
808.0,11234.47156
808.5,11152.79002
809.0,11072.62381
809.5,10993.85223
810.0,10916.3546
810.5,10840.01022
811.0,10764.69841
811.5,10690.29846
812.0,10616.6897
812.5,10543.75142
813.0,10471.36294
813.5,10399.40356
814.0,10327.7526
814.5,10256.28936
815.0,10184.89456
815.5,10113.50708
816.0,10042.14324
816.5,9970.82475
817.0,9899.57332
817.5,9828.41066
818.0,9757.35847
818.5,9686.43848
819.0,9615.67238
819.5,9545.08189
820.0,9474.68871
820.5,9404.51456
821.0,9334.58114
821.5,9264.91016
822.0,9195.52334
822.5,9126.44237
823.0,9057.68897
823.5,8989.28485
824.0,8921.25172
824.5,8853.61128
825.0,8786.38525
825.5,8719.59533
826.0,8653.26324
826.5,8587.41068
827.0,8522.05936
827.5,8457.23099
828.0,8392.94727
828.5,8329.22993
829.0,8266.10067
829.5,8203.58119
830.0,8141.6932
830.5,8080.45842
831.0,8019.89856
831.5,7960.03531
832.0,7900.8904
832.5,7842.48553
833.0,7784.84241
833.5,7727.98274
834.0,7671.92825
834.5,7616.69702
835.0,7562.27849
835.5,7508.6484
836.0,7455.78241
836.5,7403.65619
837.0,7352.2454
837.5,7301.5257
838.0,7251.47276
838.5,7202.06223
839.0,7153.26978
839.5,7105.07108
840.0,7057.44178
840.5,7010.35755
841.0,6963.79405
841.5,6917.72695
842.0,6872.13189
842.5,6826.98456
843.0,6782.26061
843.5,6737.9357
844.0,6693.9855
844.5,6650.38567
845.0,6607.11187
845.5,6564.13976
846.0,6521.44501
846.5,6479.00328
847.0,6436.79023
847.5,6394.78153
848.0,6352.95283
848.5,6311.27981
849.0,6269.73811
849.5,6228.30341
850.0,6186.95137
850.5,6145.65765
851.0,6104.39791
851.5,6063.14782
852.0,6021.88304
852.5,5980.57922
853.0,5939.21204
853.5,5897.75716
854.0,5856.19023
854.5,5814.48693
855.0,5772.62291
855.5,5730.57384
856.0,5688.31537
856.5,5645.82318
857.0,5603.07292
857.5,5560.04026
858.0,5516.70086
858.5,5473.03038
859.0,5429.00449
859.5,5384.59884
860.0,5339.78911
860.5,5294.55094
861.0,5248.86002
861.5,5202.69199
862.0,5156.02252
862.5,5108.82727
863.0,5061.08981
863.5,5012.8306
864.0,4964.08084
864.5,4914.87176
865.0,4865.23458
865.5,4815.2005
866.0,4764.80074
866.5,4714.06653
867.0,4663.02908
867.5,4611.7196
868.0,4560.16931
868.5,4508.40944
869.0,4456.47118
869.5,4404.38577
870.0,4352.18441
870.5,4299.89833
871.0,4247.55874
871.5,4195.19686
872.0,4142.8439
872.5,4090.53108
873.0,4038.28962
873.5,3986.15073
874.0,3934.14563
874.5,3882.30554
875.0,3830.66167
875.5,3779.24525
876.0,3728.08747
876.5,3677.21957
877.0,3626.67277
877.5,3576.47826
