Wavelength,Decadic_Abs_coef
306.0,29544.68071
306.5,29542.85909
307.0,29538.31488
307.5,29530.76028
308.0,29519.93234
308.5,29505.56813
309.0,29487.40469
309.5,29465.1791
310.0,29438.62841
310.5,29407.48968
311.0,29371.49996
311.5,29330.39632
312.0,29283.91581
312.5,29231.79549
313.0,29173.77242
313.5,29109.58365
314.0,29038.96626
314.5,28961.65729
315.0,28877.3938
315.5,28785.92339
316.0,28687.77779
316.5,28584.80024
317.0,28478.95885
317.5,28372.22174
318.0,28266.55702
318.5,28163.93281
319.0,28066.31721
319.5,27975.67835
320.0,27893.98434
320.5,27823.20328
321.0,27765.3033
321.5,27722.2525
322.0,27696.01901
322.5,27688.57092
323.0,27701.87637
323.5,27737.85647
324.0,27796.68133
324.5,27876.28901
325.0,27974.47267
325.5,28089.02542
326.0,28217.7404
326.5,28358.41074
327.0,28508.82958
327.5,28666.79005
328.0,28830.08528
328.5,28996.50839
329.0,29163.85254
329.5,29329.91083
330.0,29492.47642
330.5,29649.4745
331.0,29800.3162
331.5,29945.34829
332.0,30084.93217
332.5,30219.4292
333.0,30349.20078
333.5,30474.60827
334.0,30596.01306
334.5,30713.77653
335.0,30828.26005
335.5,30939.82501
336.0,31048.83279
336.5,31155.64477
337.0,31260.62232
337.5,31364.12683
338.0,31466.51967
338.5,31568.16223
339.0,31669.41588
339.5,31770.64144
340.0,31872.17381
340.5,31974.31212
341.0,32077.3529
341.5,32181.59264
342.0,32287.32785
342.5,32394.85505
343.0,32504.47075
343.5,32616.47145
344.0,32731.15366
344.5,32848.8139
345.0,32969.74867
345.5,33094.25448
346.0,33222.62784
346.5,33355.16526
347.0,33492.16325
347.5,33633.91832
348.0,33780.72698
348.5,33932.88562
349.0,34090.38138
349.5,34252.21812
350.0,34417.2048
350.5,34584.15034
351.0,34751.86368
351.5,34919.15374
352.0,35084.82946
352.5,35247.69977
353.0,35406.57361
353.5,35560.2599
354.0,35707.56758
354.5,35847.30559
355.0,35978.28285
355.5,36099.3083
356.0,36209.19087
356.5,36306.7395
357.0,36390.7631
357.5,36460.07063
358.0,36513.61728
358.5,36551.57442
359.0,36574.71633
359.5,36583.82159
360.0,36579.66881
360.5,36563.03658
361.0,36534.70348
361.5,36495.44812
362.0,36446.04908
362.5,36387.28496
363.0,36319.93436
363.5,36244.77586
364.0,36162.58807
364.5,36074.14957
365.0,35980.23895
365.5,35881.63482
366.0,35779.11577
366.5,35673.46038
367.0,35565.44725
367.5,35455.85499
368.0,35345.45828
368.5,35234.75824
369.0,35123.8069
369.5,35012.61458
370.0,34901.1916
370.5,34789.54828
371.0,34677.69495
371.5,34565.64194
372.0,34453.39955
372.5,34340.97812
373.0,34228.38798
373.5,34115.63943
374.0,34002.74281
374.5,33889.70843
375.0,33776.54663
375.5,33663.26772
376.0,33549.88203
376.5,33436.39987
377.0,33322.83158
377.5,33209.18747
378.0,33095.47787
378.5,32981.7131
379.0,32867.90349
379.5,32754.06999
380.0,32640.3709
380.5,32527.06002
381.0,32414.39305
381.5,32302.62573
382.0,32192.01377
382.5,32082.8129
383.0,31975.27884
383.5,31869.66732
384.0,31766.23405
384.5,31665.23476
385.0,31566.92516
385.5,31471.56099
386.0,31379.39796
386.5,31290.6918
387.0,31205.69823
387.5,31124.67297
388.0,31047.87175
388.5,30975.55028
389.0,30907.96428
389.5,30845.36949
390.0,30788.02162
390.5,30736.1764
391.0,30690.08954
391.5,30650.01677
392.0,30616.18811
392.5,30588.54264
393.0,30566.83541
393.5,30550.81858
394.0,30540.24428
394.5,30534.86468
395.0,30534.43192
395.5,30538.69814
396.0,30547.4155
396.5,30560.33614
397.0,30577.21222
397.5,30597.79588
398.0,30621.83927
398.5,30649.09454
399.0,30679.31384
399.5,30712.24932
400.0,30747.65312
400.5,30785.27739
401.0,30824.87429
401.5,30866.19596
402.0,30908.99455
402.5,30953.02221
403.0,30998.03108
403.5,31043.78816
404.0,31090.14315
404.5,31136.97448
405.0,31184.16059
405.5,31231.57993
406.0,31279.11093
406.5,31326.63203
407.0,31374.02169
407.5,31421.15834
408.0,31467.92043
408.5,31514.18639
409.0,31559.83468
409.5,31604.74373
410.0,31648.79199
410.5,31691.8579
411.0,31733.8199
411.5,31774.55644
412.0,31813.94596
412.5,31851.8669
413.0,31888.1977
413.5,31922.81681
414.0,31955.60267
414.5,31986.43372
415.0,32015.1884
415.5,32041.74517
416.0,32065.98245
416.5,32087.7787
417.0,32107.01644
417.5,32123.6624
418.0,32137.76243
418.5,32149.36546
419.0,32158.52041
419.5,32165.27621
420.0,32169.68178
420.5,32171.78604
421.0,32171.63792
421.5,32169.28634
422.0,32164.78023
422.5,32158.16851
423.0,32149.50011
423.5,32138.82394
424.0,32126.18893
424.5,32111.64401
425.0,32095.2381
425.5,32077.02013
426.0,32057.03901
426.5,32035.34367
427.0,32011.98304
427.5,31987.00604
428.0,31960.4616
428.5,31932.39863
429.0,31902.86606
429.5,31871.91282
430.0,31839.58783
430.5,31805.94001
431.0,31771.01829
431.5,31734.8716
432.0,31697.57083
432.5,31659.29348
433.0,31620.24928
433.5,31580.64796
434.0,31540.69926
434.5,31500.6129
435.0,31460.59863
435.5,31420.86617
436.0,31381.62527
436.5,31343.08566
437.0,31305.45707
437.5,31268.94924
438.0,31233.7719
438.5,31200.13478
439.0,31168.24763
439.5,31138.32018
440.0,31110.56215
440.5,31085.18329
441.0,31062.39333
441.5,31042.402
442.0,31025.41905
442.5,31011.65419
443.0,31001.31675
443.5,30994.51613
444.0,30991.13479
444.5,30991.02379
445.0,30994.03424
445.5,31000.01719
446.0,31008.82373
446.5,31020.30494
447.0,31034.31189
447.5,31050.69567
448.0,31069.30736
448.5,31089.99803
449.0,31112.61876
449.5,31137.02063
450.0,31163.05473
450.5,31190.57212
451.0,31219.42389
451.5,31249.46112
452.0,31280.53488
452.5,31312.49626
453.0,31345.19633
453.5,31378.48618
454.0,31412.21687
454.5,31446.2395
455.0,31480.40514
455.5,31514.56486
456.0,31548.56975
456.5,31582.27088
457.0,31615.51935
457.5,31648.16621
458.0,31680.06256
458.5,31711.05946
459.0,31741.00926
459.5,31769.87177
460.0,31797.79543
460.5,31824.94779
461.0,31851.49639
461.5,31877.60878
462.0,31903.4525
462.5,31929.1951
463.0,31955.00412
463.5,31981.04711
464.0,32007.49161
464.5,32034.50517
465.0,32062.25533
465.5,32090.90964
466.0,32120.63563
466.5,32151.60087
467.0,32183.97289
467.5,32217.91923
468.0,32253.60744
468.5,32291.20507
469.0,32330.87967
469.5,32372.79876
470.0,32417.12991
470.5,32464.04066
471.0,32513.69854
471.5,32566.27111
472.0,32621.92591
472.5,32680.83049
473.0,32743.15238
473.5,32809.05915
474.0,32878.71832
474.5,32952.29744
475.0,33029.96407
475.5,33111.88574
476.0,33198.22998
476.5,33289.09919
477.0,33384.38831
477.5,33483.95102
478.0,33587.64102
478.5,33695.31199
479.0,33806.81763
479.5,33922.01163
480.0,34040.74768
480.5,34162.87947
481.0,34288.2607
481.5,34416.74504
482.0,34548.1862
482.5,34682.43787
483.0,34819.35373
483.5,34958.78748
484.0,35100.59281
484.5,35244.62341
485.0,35390.73297
485.5,35538.77518
486.0,35688.60373
486.5,35840.07231
487.0,35993.03463
487.5,36147.34435
488.0,36302.85519
488.5,36459.42082
489.0,36616.89494
489.5,36775.13124
490.0,36933.98341
490.5,37093.30514
491.0,37252.95013
491.5,37412.77206
492.0,37572.62463
492.5,37732.36152
493.0,37891.83644
493.5,38050.9177
494.0,38209.60518
494.5,38367.9682
495.0,38526.07671
495.5,38684.00068
496.0,38841.81006
496.5,38999.5748
497.0,39157.36487
497.5,39315.25022
498.0,39473.30081
498.5,39631.58659
499.0,39790.17753
499.5,39949.14357
500.0,40108.55467
500.5,40268.4808
501.0,40428.9919
501.5,40590.15794
502.0,40752.04887
502.5,40914.73465
503.0,41078.28523
503.5,41242.77058
504.0,41408.26064
504.5,41574.82538
505.0,41742.53475
505.5,41911.45872
506.0,42081.66722
506.5,42253.23023
507.0,42426.2177
507.5,42600.69958
508.0,42776.74584
508.5,42954.42642
509.0,43133.81129
509.5,43314.97041
510.0,43497.97372
510.5,43682.89119
511.0,43869.79278
511.5,44058.74843
512.0,44249.82811
512.5,44443.10178
513.0,44638.63938
513.5,44836.51088
514.0,45036.78624
514.5,45239.5354
515.0,45444.82834
515.5,45652.735
516.0,45863.32533
516.5,46076.66931
517.0,46292.83688
517.5,46511.898
518.0,46733.92263
518.5,46958.98073
519.0,47187.14224
519.5,47418.47713
520.0,47653.01982
520.5,47890.66625
521.0,48131.27869
521.5,48374.7194
522.0,48620.85062
522.5,48869.53462
523.0,49120.63365
523.5,49374.00997
524.0,49629.52584
524.5,49887.0435
525.0,50146.42522
525.5,50407.53325
526.0,50670.22985
526.5,50934.37728
527.0,51199.83779
527.5,51466.47363
528.0,51734.14707
528.5,52002.72035
529.0,52272.05574
529.5,52542.0155
530.0,52812.46187
530.5,53083.25711
531.0,53354.26349
531.5,53625.34325
532.0,53896.35866
532.5,54167.17196
533.0,54437.64542
533.5,54707.64129
534.0,54977.02182
534.5,55245.64928
535.0,55513.38592
535.5,55780.094
536.0,56045.63576
536.5,56309.87348
537.0,56572.6694
537.5,56833.88578
538.0,57093.38487
538.5,57351.02894
539.0,57606.68024
539.5,57860.23489
540.0,58111.76589
540.5,58361.40376
541.0,58609.27903
541.5,58855.52226
542.0,59100.26399
542.5,59343.63477
543.0,59585.76515
543.5,59826.78567
544.0,60066.82688
544.5,60306.01933
545.0,60544.49356
545.5,60782.38013
546.0,61019.80958
546.5,61256.91245
547.0,61493.81929
547.5,61730.66066
548.0,61967.56709
548.5,62204.66913
549.0,62442.09734
549.5,62679.98225
550.0,62918.45442
550.5,63157.64439
551.0,63397.68271
551.5,63638.69992
552.0,63880.82658
552.5,64124.19322
553.0,64368.9304
553.5,64615.16867
554.0,64863.03857
554.5,65112.67064
555.0,65364.19544
555.5,65617.74351
556.0,65873.4454
556.5,66131.42626
557.0,66391.64171
557.5,66653.8478
558.0,66917.78917
558.5,67183.21046
559.0,67449.85628
559.5,67717.47127
560.0,67985.80005
560.5,68254.58727
561.0,68523.57755
561.5,68792.51551
562.0,69061.14579
562.5,69329.21302
563.0,69596.46182
563.5,69862.63684
564.0,70127.48269
564.5,70390.744
565.0,70652.16542
565.5,70911.49156
566.0,71168.46706
566.5,71422.83654
567.0,71674.3191
567.5,71922.40141
568.0,72166.44597
568.5,72405.81414
569.0,72639.86728
569.5,72867.96672
570.0,73089.47382
570.5,73303.74994
571.0,73510.15642
571.5,73708.05462
572.0,73896.80588
572.5,74075.77156
573.0,74244.313
573.5,74401.79157
574.0,74547.74897
574.5,74682.53152
575.0,74806.70981
575.5,74920.85444
576.0,75025.53599
576.5,75121.32507
577.0,75208.79226
577.5,75288.50816
578.0,75361.04337
578.5,75426.96847
579.0,75486.85407
579.5,75541.27076
580.0,75590.78914
580.5,75635.97979
581.0,75677.41331
581.5,75715.6603
582.0,75751.29135
582.5,75784.87705
583.0,75816.98801
583.5,75848.19481
584.0,75879.05892
584.5,75909.81651
585.0,75940.29739
585.5,75970.30584
586.0,75999.64609
586.5,76028.12242
587.0,76055.53906
587.5,76081.70028
588.0,76106.41033
588.5,76129.47346
589.0,76150.69394
589.5,76169.87601
590.0,76186.82392
590.5,76201.34194
591.0,76213.23432
591.5,76222.30531
592.0,76228.35917
592.5,76231.20014
593.0,76230.63345
593.5,76226.71185
594.0,76220.06459
594.5,76211.40279
595.0,76201.4376
595.5,76190.88013
596.0,76180.44154
596.5,76170.83294
597.0,76162.76548
597.5,76156.95028
598.0,76154.09847
598.5,76154.9212
599.0,76160.12958
599.5,76170.43476
600.0,76186.54787
600.5,76209.18003
601.0,76239.04023
601.5,76276.56404
602.0,76321.64947
602.5,76374.13183
603.0,76433.84644
603.5,76500.62859
604.0,76574.31361
604.5,76654.7368
605.0,76741.73347
605.5,76835.13893
606.0,76934.7885
606.5,77040.51748
607.0,77152.16119
607.5,77269.55493
608.0,77392.52236
608.5,77520.66512
609.0,77653.38574
609.5,77790.07971
610.0,77930.14251
610.5,78072.96963
611.0,78217.95653
611.5,78364.49871
612.0,78511.99165
612.5,78659.83082
613.0,78807.41172
613.5,78954.12982
614.0,79099.38061
614.5,79242.55956
615.0,79383.06217
615.5,79520.2839
616.0,79653.62026
616.5,79782.4667
617.0,79906.21909
617.5,80024.32792
618.0,80136.35635
618.5,80241.88143
619.0,80340.4802
619.5,80431.72972
620.0,80515.20703
620.5,80590.48917
621.0,80657.1532
621.5,80714.77616
622.0,80762.9351
622.5,80801.20707
623.0,80829.16912
623.5,80846.39828
624.0,80852.47163
624.5,80846.96618
625.0,80829.45901
625.5,80799.52715
626.0,80756.74765
626.5,80700.69756
627.0,80630.95393
627.5,80547.1973
628.0,80450.14917
628.5,80341.13288
629.0,80221.47907
629.5,80092.51839
630.0,79955.58148
630.5,79811.99899
631.0,79663.10158
631.5,79510.21988
632.0,79354.68454
632.5,79197.8262
633.0,79040.97553
633.5,78885.46315
634.0,78732.61973
634.5,78583.7759
635.0,78440.26231
635.5,78302.34492
636.0,78163.59782
636.5,78015.00146
637.0,77847.53059
637.5,77652.15996
638.0,77419.86432
638.5,77141.61843
639.0,76808.39704
639.5,76411.17491
640.0,75940.92679
640.5,75388.62744
641.0,74745.94804
641.5,74015.37677
642.0,73207.93622
642.5,72334.88084
643.0,71407.46507
643.5,70436.94337
644.0,69434.57018
644.5,68411.59994
645.0,67379.28711
645.5,66348.88614
646.0,65331.65146
646.5,64338.38644
647.0,63372.9546
647.5,62433.77819
648.0,61519.13367
648.5,60627.29749
649.0,59756.54609
649.5,58905.15594
650.0,58071.40347
650.5,57253.56514
651.0,56449.9174
651.5,55658.7367
652.0,54878.29949
652.5,54106.88222
653.0,53342.77539
653.5,52584.97087
654.0,51833.47352
654.5,51088.36721
655.0,50349.73583
655.5,49617.66324
656.0,48892.23332
656.5,48173.52994
657.0,47461.63697
657.5,46756.63829
658.0,46058.61777
658.5,45367.65929
659.0,44683.84672
659.5,44007.26393
660.0,43337.99479
660.5,42676.12319
661.0,42021.73299
661.5,41374.90806
662.0,40735.73229
662.5,40104.28954
663.0,39480.66369
663.5,38864.93861
664.0,38257.19818
664.5,37657.52626
665.0,37066.00674
665.5,36482.72348
666.0,35907.76037
666.5,35341.19379
667.0,34783.02661
667.5,34233.21983
668.0,33691.73401
668.5,33158.52969
669.0,32633.56741
669.5,32116.80772
670.0,31608.21116
670.5,31107.73827
671.0,30615.3496
671.5,30131.00569
672.0,29654.66709
672.5,29186.29433
673.0,28725.84796
673.5,28273.28853
674.0,27828.57658
674.5,27391.67264
675.0,26962.53728
675.5,26541.13102
676.0,26127.41441
676.5,25721.348
677.0,25322.89233
677.5,24932.00794
678.0,24548.65538
678.5,24172.79519
679.0,23804.38791
679.5,23443.39408
680.0,23089.77426
680.5,22743.48899
681.0,22404.4988
681.5,22072.76424
682.0,21748.24585
682.5,21430.90419
683.0,21120.69976
683.5,20817.57376
684.0,20521.41187
684.5,20232.08983
685.0,19949.48343
685.5,19673.46843
686.0,19403.92059
686.5,19140.71569
687.0,18883.72949
687.5,18632.83776
688.0,18387.91626
688.5,18148.84076
689.0,17915.48704
689.5,17687.73085
690.0,17465.44796
690.5,17248.51415
691.0,17036.80517
691.5,16830.19681
692.0,16628.56481
692.5,16431.78495
693.0,16239.733
693.5,16052.28473
694.0,15869.3159
694.5,15690.70227
695.0,15516.31963
695.5,15346.04372
696.0,15179.75033
696.5,15017.31521
697.0,14858.61414
697.5,14703.52288
698.0,14551.9172
698.5,14403.67287
699.0,14258.66565
699.5,14116.77131
700.0,13977.86562
700.5,13841.82435
701.0,13708.52325
701.5,13577.83811
702.0,13449.64468
702.5,13323.81874
703.0,13200.23605
703.5,13078.77366
704.0,12959.35071
704.5,12841.93691
705.0,12726.50501
705.5,12613.02771
706.0,12501.47775
706.5,12391.82784
707.0,12284.05073
707.5,12178.11911
708.0,12074.00574
708.5,11971.68332
709.0,11871.12458
709.5,11772.30225
710.0,11675.18905
710.5,11579.7577
711.0,11485.98094
711.5,11393.83148
712.0,11303.28205
712.5,11214.30537
713.0,11126.87418
713.5,11040.96118
714.0,10956.53912
714.5,10873.5807
715.0,10792.05866
715.5,10711.94572
716.0,10633.21461
716.5,10555.83805
717.0,10479.78876
717.5,10405.03948
718.0,10331.56291
718.5,10259.3318
719.0,10188.31886
719.5,10118.49681
720.0,10049.83839
720.5,9982.31631
721.0,9915.90331
721.5,9850.5721
722.0,9786.29541
722.5,9723.04596
723.0,9660.79649
723.5,9599.5197
724.0,9539.18834
724.5,9479.77512
725.0,9421.25277
725.5,9363.59401
726.0,9306.77156
726.5,9250.75816
727.0,9195.52652
727.5,9141.04937
728.0,9087.29944
728.5,9034.24944
729.0,8981.87211
729.5,8930.14017
730.0,8879.02634
730.5,8828.50335
731.0,8778.54392
731.5,8729.12077
732.0,8680.20664
732.5,8631.77424
733.0,8583.7963
733.5,8536.24555
734.0,8489.09471
734.5,8442.3165
735.0,8395.88364
735.5,8349.7716
736.0,8303.97286
736.5,8258.48652
737.0,8213.31169
737.5,8168.44747
738.0,8123.89297
738.5,8079.64729
739.0,8035.70954
739.5,7992.07882
740.0,7948.75425
740.5,7905.73492
741.0,7863.01994
741.5,7820.60841
742.0,7778.49945
742.5,7736.69216
743.0,7695.18565
743.5,7653.97901
744.0,7613.07136
744.5,7572.4618
745.0,7532.14944
745.5,7492.13338
746.0,7452.41272
746.5,7412.98659
747.0,7373.85407
747.5,7335.01428
748.0,7296.46631
748.5,7258.20929
749.0,7220.24231
749.5,7182.56447
750.0,7145.17489
750.5,7108.07267
751.0,7071.25691
751.5,7034.72673
752.0,6998.48122
752.5,6962.51949
753.0,6926.84065
753.5,6891.44381
754.0,6856.32806
754.5,6821.49252
755.0,6786.93629
755.5,6752.65848
756.0,6718.65819
756.5,6684.93452
757.0,6651.48659
757.5,6618.3135
758.0,6585.41435
758.5,6552.78826
759.0,6520.43432
759.5,6488.35164
760.0,6456.53933
760.5,6424.99649
761.0,6393.72223
761.5,6362.71566
762.0,6331.97588
762.5,6301.50199
763.0,6271.2931
763.5,6241.34832
764.0,6211.66676
764.5,6182.24751
765.0,6153.08969
765.5,6124.1924
766.0,6095.55474
766.5,6067.17583
767.0,6039.05476
767.5,6011.19064
768.0,5983.58259
768.5,5956.22969
769.0,5929.13107
769.5,5902.28583
770.0,5875.69306
770.5,5849.35188
771.0,5823.2614
771.5,5797.42071
772.0,5771.82893
772.5,5746.48515
773.0,5721.38849
773.5,5696.53806
774.0,5671.93295
774.5,5647.57227
775.0,5623.45513
775.5,5599.58063
776.0,5575.94789
776.5,5552.55599
777.0,5529.40406
777.5,5506.4912
778.0,5483.81651
778.5,5461.37907
779.0,5439.17706
779.5,5417.20761
780.0,5395.46778
780.5,5373.95463
781.0,5352.66524
781.5,5331.59665
782.0,5310.74594
782.5,5290.11017
783.0,5269.6864
783.5,5249.4717
784.0,5229.46312
784.5,5209.65774
785.0,5190.05262
785.5,5170.64482
786.0,5151.4314
786.5,5132.40942
787.0,5113.57596
787.5,5094.92808
788.0,5076.46283
788.5,5058.17728
789.0,5040.0685
789.5,5022.13354
790.0,5004.36948
790.5,4986.77337
791.0,4969.34229
791.5,4952.07328
792.0,4934.96342
792.5,4918.00978
793.0,4901.2094
793.5,4884.55936
794.0,4868.05673
794.5,4851.69855
795.0,4835.48191
795.5,4819.40385
796.0,4803.46145
796.5,4787.65177
797.0,4771.97187
797.5,4756.41882
798.0,4740.98967
798.5,4725.6815
799.0,4710.49136
799.5,4695.41633
800.0,4680.45345
800.5,4665.5998
801.0,4650.85245
801.5,4636.20844
802.0,4621.66486
802.5,4607.21875
803.0,4592.86719
803.5,4578.60724
804.0,4564.43596
804.5,4550.35041
805.0,4536.34766
805.5,4522.42478
806.0,4508.57882
806.5,4494.80685
807.0,4481.10593
807.5,4467.47313
808.0,4453.90551
808.5,4440.40013
809.0,4426.95406
809.5,4413.56436
810.0,4400.2281
810.5,4386.94233
811.0,4373.70412
811.5,4360.51054
812.0,4347.35865
812.5,4334.2455
813.0,4321.16818
813.5,4308.12373
814.0,4295.10923
814.5,4282.12173
815.0,4269.1583
815.5,4256.216
816.0,4243.2919
816.5,4230.38307
817.0,4217.48655
817.5,4204.59942
818.0,4191.71875
818.5,4178.84158
819.0,4165.965
819.5,4153.08606
820.0,4140.20182
820.5,4127.30935
821.0,4114.40572
821.5,4101.48798
822.0,4088.55319
822.5,4075.59844
823.0,4062.62076
823.5,4049.61724
824.0,4036.58493
824.5,4023.5209
825.0,4010.42221
825.5,3997.28704
826.0,3984.11651
826.5,3970.9123
827.0,3957.67603
827.5,3944.40937
828.0,3931.11395
828.5,3917.79142
829.0,3904.44344
829.5,3891.07164
830.0,3877.67767
830.5,3864.26319
831.0,3850.82984
831.5,3837.37925
832.0,3823.9131
832.5,3810.43301
833.0,3796.94064
833.5,3783.43763
834.0,3769.92563
834.5,3756.40629
835.0,3742.88125
835.5,3729.35216
836.0,3715.82068
836.5,3702.28844
837.0,3688.75709
837.5,3675.22828
838.0,3661.70365
838.5,3648.18486
839.0,3634.67356
839.5,3621.17137
840.0,3607.67997
840.5,3594.20098
841.0,3580.73607
841.5,3567.28687
842.0,3553.85503
842.5,3540.4422
843.0,3527.05003
843.5,3513.68016
844.0,3500.33425
844.5,3487.01393
845.0,3473.72086
845.5,3460.45667
846.0,3447.22303
846.5,3434.02158
847.0,3420.85395
847.5,3407.72181
848.0,3394.62679
848.5,3381.57055
849.0,3368.55473
849.5,3355.58098
850.0,3342.65094
850.5,3329.76627
851.0,3316.9286
851.5,3304.13959
852.0,3291.40088
852.5,3278.71413
853.0,3266.08097
853.5,3253.50306
854.0,3240.98203
854.5,3228.51955
855.0,3216.11725
855.5,3203.77679
856.0,3191.4998
856.5,3179.28794
857.0,3167.14285
857.5,3155.06619
858.0,3143.05959
858.5,3131.12471
859.0,3119.26318
859.5,3107.47667
860.0,3095.76681
860.5,3084.13526
861.0,3072.58366
861.5,3061.11365
862.0,3049.72688
862.5,3038.42501
863.0,3027.20968
863.5,3016.08253
864.0,3005.04521
864.5,2994.09937
865.0,2983.24666
865.5,2972.48872
866.0,2961.8272
866.5,2951.26375
867.0,2940.80001
867.5,2930.43763
868.0,2920.17826
868.5,2910.02355
869.0,2899.97514
869.5,2890.03467
870.0,2880.20381
870.5,2870.48419
871.0,2860.87745
871.5,2851.38526
872.0,2842.00925
